,Clearsky DHI,Clearsky DNI,Clearsky GHI,Solar Zenith Angle,Precipitable Water
0,,,,106.23,3.5
1,,,,112.36,3.5
2,,,,118.58,3.5
3,,,,124.86,3.5
4,,,,131.2,3.6
5,,,,137.56,3.7
6,,,,143.92,3.8
7,,,,150.25,3.9
8,,,,156.46,4.0
9,,,,162.42,4.0
10,,,,167.69,4.0
11,,,,170.95,3.9
12,,,,169.98,3.8
13,,,,165.61,3.7
14,,,,159.97,3.5
15,,,,153.87,3.4
16,,,,147.6,3.3
17,,,,141.25,3.2
18,,,,134.88,3.1
19,,,,128.53,3.1
20,,,,122.21,3.1
21,,,,115.95,3.1
22,,,,109.76,3.1
23,,,,103.67,3.2
24,,,,97.71,3.2
25,,,,91.9,3.2
26,,,,86.09,3.2
27,,,,80.8,3.2
28,,,,75.73,3.2
29,,,,71.0,3.2
30,,,,66.68,3.2
31,,,,62.89,3.2
32,,,,59.7,3.2
33,,,,57.24,3.3
34,,,,55.61,3.3
35,,,,54.86,3.3
36,,,,55.05,3.4
37,,,,56.16,3.4
38,,,,58.13,3.5
39,,,,60.9,3.5
40,,,,64.34,3.6
41,,,,68.35,3.6
42,,,,72.85,3.6
43,,,,77.73,3.7
44,,,,82.9,3.7
45,,,,88.2,3.7
46,,,,94.21,3.7
47,,,,100.08,3.7
48,,,,106.1,3.7
49,,,,112.22,3.7
50,,,,118.44,3.7
51,,,,124.73,3.7
52,,,,131.07,3.7
53,,,,137.43,3.7
54,,,,143.79,3.7
55,,,,150.11,3.6
56,,,,156.33,3.6
57,,,,162.28,3.6
58,,,,167.56,3.5
59,,,,170.85,3.5
60,,,,169.95,3.5
61,,,,165.64,3.5
62,,,,160.02,3.4
63,,,,153.93,3.4
64,,,,147.66,3.4
65,,,,141.32,3.4
66,,,,134.95,3.4
67,,,,128.59,3.3
68,,,,122.27,3.3
69,,,,116.01,3.3
70,,,,109.82,3.3
71,,,,103.73,3.3
72,,,,97.76,3.4
73,,,,91.94,3.4
74,,,,86.12,3.4
75,,,,80.83,3.3
76,,,,75.75,3.3
77,,,,71.0,3.3
78,,,,66.68,3.2
79,,,,62.87,3.2
80,,,,59.67,3.2
81,,,,57.19,3.2
82,,,,55.54,3.2
83,,,,54.78,3.2
84,,,,54.95,3.2
85,,,,56.05,3.2
86,,,,58.01,3.2
87,,,,60.77,3.2
88,,,,64.2,3.2
89,,,,68.22,3.2
90,,,,72.71,3.1
91,,,,77.59,3.1
92,,,,82.76,3.0
93,,,,88.07,2.9
94,,,,94.07,2.9
95,,,,99.94,2.9
96,,,,105.96,2.7
97,,,,112.09,2.6
98,,,,118.31,2.6
99,,,,124.6,2.5
100,,,,130.93,2.4
101,,,,137.29,2.4
102,,,,143.65,2.4
103,,,,149.98,2.3
104,,,,156.19,2.3
105,,,,162.14,2.3
106,,,,167.42,2.3
107,,,,170.74,2.3
108,,,,169.92,2.3
109,,,,165.66,2.3
110,,,,160.06,2.3
111,,,,153.99,2.4
112,,,,147.72,2.5
113,,,,141.38,2.6
114,,,,135.01,2.7
115,,,,128.65,2.9
116,,,,122.33,3.0
117,,,,116.06,3.1
118,,,,109.87,3.2
119,,,,103.77,3.2
120,,,,97.8,3.3
121,,,,91.98,3.4
122,,,,86.15,3.4
123,,,,80.85,3.4
124,,,,75.76,3.5
125,,,,71.0,3.5
126,,,,66.67,3.5
127,,,,62.84,3.5
128,,,,59.63,3.5
129,,,,57.13,3.5
130,,,,55.46,3.4
131,,,,54.69,3.3
132,,,,54.84,3.3
133,,,,55.93,3.2
134,,,,57.89,3.2
135,,,,60.63,3.2
136,,,,64.07,3.2
137,,,,68.08,3.2
138,,,,72.57,3.3
139,,,,77.44,3.3
140,,,,82.62,3.3
141,,,,87.94,3.3
142,,,,93.92,3.4
143,,,,99.8,3.4
144,,,,105.82,3.3
145,,,,111.95,3.3
146,,,,118.17,3.3
147,,,,124.46,3.2
148,,,,130.79,3.2
149,,,,137.16,3.2
150,,,,143.52,3.1
151,,,,149.84,3.2
152,,,,156.05,3.2
153,,,,162.0,3.3
154,,,,167.27,3.4
155,,,,170.61,3.6
156,,,,169.87,3.8
157,,,,165.67,3.9
158,,,,160.1,4.1
159,,,,154.04,4.1
160,,,,147.78,4.2
161,,,,141.44,4.2
162,,,,135.07,4.3
163,,,,128.71,4.3
164,,,,122.39,4.3
165,,,,116.12,4.3
166,,,,109.92,4.4
167,,,,103.82,4.3
168,,,,97.84,4.3
169,,,,92.01,4.3
170,,,,86.18,4.3
171,,,,80.86,4.4
172,,,,75.77,4.5
173,,,,71.0,4.5
174,,,,66.65,4.4
175,,,,62.81,4.2
176,,,,59.58,3.9
177,,,,57.07,3.4
178,,,,55.38,2.9
179,,,,54.59,2.4
180,,,,54.73,1.9
181,,,,55.81,1.6
182,,,,57.75,1.3
183,,,,60.49,1.3
184,,,,63.92,1.2
185,,,,67.93,1.3
186,,,,72.42,1.3
187,,,,77.3,1.3
188,,,,82.47,1.3
189,,,,87.8,1.3
190,,,,93.78,1.3
191,,,,99.66,1.3
192,,,,105.68,1.3
193,,,,111.81,1.4
194,,,,118.03,1.4
195,,,,124.32,1.4
196,,,,130.66,1.4
197,,,,137.02,1.4
198,,,,143.38,1.4
199,,,,149.7,1.4
200,,,,155.91,1.4
201,,,,161.85,1.3
202,,,,167.12,1.3
203,,,,170.49,1.2
204,,,,169.82,1.1
205,,,,165.68,1.1
206,,,,160.13,1.1
207,,,,154.08,1.0
208,,,,147.83,1.0
209,,,,141.49,1.0
210,,,,135.12,1.0
211,,,,128.77,1.0
212,,,,122.44,1.0
213,,,,116.16,1.0
214,,,,109.96,1.0
215,,,,103.86,1.1
216,,,,97.87,1.2
217,,,,92.04,1.3
218,,,,86.18,1.3
219,,,,80.87,1.3
220,,,,75.76,1.3
221,,,,70.98,1.2
222,,,,66.62,1.2
223,,,,62.76,1.1
224,,,,59.52,1.1
225,,,,57.0,1.1
226,,,,55.29,1.2
227,,,,54.48,1.2
228,,,,54.61,1.3
229,,,,55.67,1.3
230,,,,57.61,1.3
231,,,,60.35,1.2
232,,,,63.77,1.2
233,,,,67.78,1.2
234,,,,72.26,1.1
235,,,,77.14,1.1
236,,,,82.32,1.1
237,,,,87.65,1.1
238,,,,93.63,1.0
239,,,,99.51,1.0
240,,,,105.53,1.0
241,,,,111.66,1.0
242,,,,117.89,1.0
243,,,,124.18,0.9
244,,,,130.52,0.9
245,,,,136.88,0.9
246,,,,143.24,0.9
247,,,,149.56,0.8
248,,,,155.76,0.8
249,,,,161.7,0.8
250,,,,166.97,0.8
251,,,,170.35,0.8
252,,,,169.76,0.8
253,,,,165.67,0.8
254,,,,160.16,0.8
255,,,,154.12,0.8
256,,,,147.88,0.8
257,,,,141.54,0.8
258,,,,135.17,0.8
259,,,,128.81,0.8
260,,,,122.48,0.8
261,,,,116.21,0.8
262,,,,110.0,0.8
263,,,,103.89,0.8
264,,,,97.9,0.8
265,,,,92.06,0.9
266,,,,86.19,0.9
267,,,,80.87,0.9
268,,,,75.75,0.9
269,,,,70.96,0.9
270,,,,66.59,0.9
271,,,,62.72,0.9
272,,,,59.46,0.9
273,,,,56.92,0.9
274,,,,55.19,0.9
275,,,,54.37,1.0
276,,,,54.49,1.0
277,,,,55.54,1.0
278,,,,57.47,1.0
279,,,,60.2,1.0
280,,,,63.62,1.0
281,,,,67.62,1.1
282,,,,72.11,1.1
283,,,,76.99,1.1
284,,,,82.17,1.1
285,,,,87.51,1.2
286,,,,93.48,1.2
287,,,,99.36,1.2
288,,,,105.38,1.2
289,,,,111.52,1.2
290,,,,117.74,1.2
291,,,,124.04,1.2
292,,,,130.38,1.2
293,,,,136.74,1.2
294,,,,143.1,1.2
295,,,,149.41,1.2
296,,,,155.62,1.2
297,,,,161.55,1.2
298,,,,166.81,1.2
299,,,,170.21,1.2
300,,,,169.68,1.2
301,,,,165.66,1.2
302,,,,160.18,1.2
303,,,,154.16,1.2
304,,,,147.92,1.1
305,,,,141.58,1.1
306,,,,135.22,1.1
307,,,,128.86,1.1
308,,,,122.52,1.1
309,,,,116.24,1.1
310,,,,110.03,1.1
311,,,,103.92,1.1
312,,,,97.92,1.1
313,,,,92.07,1.1
314,,,,86.2,1.1
315,,,,80.87,1.1
316,,,,75.74,1.1
317,,,,70.94,1.1
318,,,,66.55,1.1
319,,,,62.66,1.1
320,,,,59.39,1.1
321,,,,56.83,1.2
322,,,,55.09,1.2
323,,,,54.25,1.2
324,,,,54.35,1.3
325,,,,55.39,1.3
326,,,,57.32,1.4
327,,,,60.04,1.3
328,,,,63.46,1.3
329,,,,67.46,1.3
330,,,,71.95,1.3
331,,,,76.83,1.3
332,,,,82.02,1.3
333,,,,87.36,1.2
334,,,,93.33,1.2
335,,,,99.21,1.2
336,,,,105.23,1.2
337,,,,111.37,1.1
338,,,,117.6,1.1
339,,,,123.89,1.1
340,,,,130.23,1.1
341,,,,136.6,1.1
342,,,,142.96,1.0
343,,,,149.27,1.0
344,,,,155.47,1.0
345,,,,161.39,1.1
346,,,,166.65,1.1
347,,,,170.06,1.3
348,,,,169.6,1.4
349,,,,165.64,1.6
350,,,,160.19,1.7
351,,,,154.19,1.8
352,,,,147.95,1.8
353,,,,141.62,1.8
354,,,,135.26,1.7
355,,,,128.9,1.6
356,,,,122.56,1.6
357,,,,116.28,1.5
358,,,,110.06,1.4
359,,,,103.94,1.4
360,,,,97.94,1.3
361,,,,92.08,1.3
362,,,,86.21,1.2
363,,,,80.86,1.2
364,,,,75.72,1.2
365,,,,70.91,1.3
366,,,,66.5,1.3
367,,,,62.6,1.4
368,,,,59.31,1.4
369,,,,56.73,1.5
370,,,,54.98,1.6
371,,,,54.12,1.6
372,,,,54.21,1.7
373,,,,55.24,1.8
374,,,,57.16,1.8
375,,,,59.88,1.9
376,,,,63.29,2.0
377,,,,67.29,2.0
378,,,,71.78,2.1
379,,,,76.67,2.0
380,,,,81.86,2.0
381,,,,87.21,2.0
382,,,,93.17,2.0
383,,,,99.06,2.0
384,,,,105.08,2.0
385,,,,111.22,2.0
386,,,,117.45,2.0
387,,,,123.75,1.9
388,,,,130.09,1.9
389,,,,136.45,1.8
390,,,,142.81,1.7
391,,,,149.12,1.7
392,,,,155.32,1.7
393,,,,161.24,1.6
394,,,,166.48,1.6
395,,,,169.9,1.6
396,,,,169.51,1.5
397,,,,165.62,1.5
398,,,,160.2,1.4
399,,,,154.21,1.2
400,,,,147.98,1.1
401,,,,141.66,1.0
402,,,,135.29,0.9
403,,,,128.93,0.9
404,,,,122.59,0.8
405,,,,116.3,0.7
406,,,,110.09,0.7
407,,,,103.96,0.6
408,,,,97.95,0.6
409,,,,92.09,0.6
410,,,,86.2,0.5
411,,,,80.85,0.5
412,,,,75.7,0.5
413,,,,70.87,0.5
414,,,,66.45,0.5
415,,,,62.53,0.5
416,,,,59.22,0.5
417,,,,56.63,0.5
418,,,,54.86,0.5
419,,,,53.99,0.5
420,,,,54.07,0.5
421,,,,55.08,0.5
422,,,,56.99,0.5
423,,,,59.71,0.5
424,,,,63.12,0.5
425,,,,67.12,0.5
426,,,,71.61,0.5
427,,,,76.5,0.5
428,,,,81.69,0.5
429,,,,87.05,0.5
430,,,,93.01,0.5
431,,,,98.9,0.5
432,,,,104.93,0.5
433,,,,111.07,0.5
434,,,,117.3,0.5
435,,,,123.6,0.5
436,,,,129.94,0.5
437,,,,136.31,0.5
438,,,,142.67,0.6
439,,,,148.97,0.6
440,,,,155.16,0.6
441,,,,161.08,0.6
442,,,,166.31,0.6
443,,,,169.74,0.7
444,,,,169.41,0.7
445,,,,165.58,0.7
446,,,,160.2,0.7
447,,,,154.22,0.7
448,,,,148.01,0.7
449,,,,141.69,0.7
450,,,,135.32,0.7
451,,,,128.96,0.7
452,,,,122.62,0.7
453,,,,116.33,0.7
454,,,,110.1,0.7
455,,,,103.97,0.7
456,,,,97.96,0.7
457,,,,92.08,0.7
458,,,,86.18,0.7
459,,,,80.82,0.7
460,,,,75.66,0.7
461,,,,70.82,0.7
462,,,,66.39,0.7
463,,,,62.46,0.7
464,,,,59.13,0.7
465,,,,56.52,0.7
466,,,,54.73,0.7
467,,,,53.85,0.7
468,,,,53.91,0.7
469,,,,54.92,0.7
470,,,,56.82,0.7
471,,,,59.53,0.7
472,,,,62.94,0.7
473,,,,66.95,0.7
474,,,,71.44,0.7
475,,,,76.33,0.7
476,,,,81.53,0.7
477,,,,86.9,0.7
478,,,,92.85,0.7
479,,,,98.74,0.7
480,,,,104.78,0.7
481,,,,110.92,0.7
482,,,,117.15,0.8
483,,,,123.45,0.8
484,,,,129.8,0.8
485,,,,136.16,0.8
486,,,,142.52,0.8
487,,,,148.83,0.8
488,,,,155.01,0.8
489,,,,160.91,0.8
490,,,,166.14,0.8
491,,,,169.57,0.8
492,,,,169.3,0.8
493,,,,165.54,0.8
494,,,,160.19,0.8
495,,,,154.24,0.8
496,,,,148.03,0.8
497,,,,141.71,0.8
498,,,,135.35,0.8
499,,,,128.98,0.8
500,,,,122.64,0.8
501,,,,116.34,0.8
502,,,,110.12,0.8
503,,,,103.98,0.8
504,,,,97.96,0.8
505,,,,92.08,0.8
506,,,,86.17,0.8
507,,,,80.8,0.8
508,,,,75.62,0.8
509,,,,70.77,0.8
510,,,,66.32,0.8
511,,,,62.38,0.8
512,,,,59.03,0.8
513,,,,56.41,0.9
514,,,,54.6,0.9
515,,,,53.7,0.9
516,,,,53.75,1.0
517,,,,54.75,1.0
518,,,,56.65,1.0
519,,,,59.35,1.1
520,,,,62.76,1.1
521,,,,66.77,1.2
522,,,,71.27,1.2
523,,,,76.16,1.3
524,,,,81.36,1.3
525,,,,86.74,1.4
526,,,,92.69,1.4
527,,,,98.58,1.4
528,,,,104.62,1.5
529,,,,110.77,1.6
530,,,,117.0,1.6
531,,,,123.3,1.7
532,,,,129.65,1.7
533,,,,136.01,1.8
534,,,,142.37,1.8
535,,,,148.67,1.8
536,,,,154.85,1.9
537,,,,160.75,1.9
538,,,,165.96,2.0
539,,,,169.39,2.0
540,,,,169.18,2.0
541,,,,165.49,2.0
542,,,,160.17,2.0
543,,,,154.24,2.0
544,,,,148.04,2.0
545,,,,141.73,2.0
546,,,,135.37,2.0
547,,,,129.0,2.0
548,,,,122.66,2.0
549,,,,116.36,2.1
550,,,,110.12,2.1
551,,,,103.98,2.1
552,,,,97.95,2.1
553,,,,92.06,2.1
554,,,,86.15,2.1
555,,,,80.77,2.1
556,,,,75.58,2.2
557,,,,70.71,2.3
558,,,,66.25,2.3
559,,,,62.29,2.4
560,,,,58.93,2.4
561,,,,56.28,2.4
562,,,,54.46,2.4
563,,,,53.54,2.4
564,,,,53.58,2.5
565,,,,54.57,2.5
566,,,,56.46,2.5
567,,,,59.17,2.6
568,,,,62.58,2.6
569,,,,66.59,2.7
570,,,,71.09,2.7
571,,,,75.98,2.8
572,,,,81.19,2.8
573,,,,86.58,2.8
574,,,,92.52,2.8
575,,,,98.42,2.8
576,,,,104.46,2.8
577,,,,110.61,2.8
578,,,,116.85,2.7
579,,,,123.15,2.7
580,,,,129.5,2.7
581,,,,135.87,2.7
582,,,,142.22,2.7
583,,,,148.52,2.7
584,,,,154.69,2.7
585,,,,160.58,2.7
586,,,,165.77,2.7
587,,,,169.21,2.7
588,,,,169.05,2.7
589,,,,165.43,2.7
590,,,,160.15,2.7
591,,,,154.24,2.7
592,,,,148.05,2.7
593,,,,141.74,2.7
594,,,,135.38,2.7
595,,,,129.01,2.7
596,,,,122.67,2.7
597,,,,116.36,2.6
598,,,,110.13,2.5
599,,,,103.98,2.4
600,,,,97.94,2.2
601,,,,92.05,2.0
602,,,,86.13,1.8
603,,,,80.73,1.6
604,,,,75.53,1.4
605,,,,70.65,1.3
606,,,,66.17,1.2
607,,,,62.19,1.2
608,,,,58.82,1.2
609,,,,56.15,1.2
610,,,,54.31,1.2
611,,,,53.38,1.2
612,,,,53.41,1.2
613,,,,54.39,1.2
614,,,,56.28,1.2
615,,,,58.98,1.3
616,,,,62.39,1.3
617,,,,66.4,1.3
618,,,,70.9,1.2
619,,,,75.8,1.2
620,,,,81.02,1.2
621,,,,86.42,1.2
622,,,,92.36,1.2
623,,,,98.26,1.2
624,,,,104.3,1.1
625,,,,110.46,1.1
626,,,,116.7,1.1
627,,,,123.0,1.1
628,,,,129.35,1.1
629,,,,135.72,1.1
630,,,,142.07,1.1
631,,,,148.37,1.0
632,,,,154.53,1.0
633,,,,160.41,1.0
634,,,,165.59,1.0
635,,,,169.02,1.0
636,,,,168.92,1.0
637,,,,165.36,1.0
638,,,,160.12,1.0
639,,,,154.23,1.0
640,,,,148.05,1.0
641,,,,141.75,1.0
642,,,,135.39,1.0
643,,,,129.02,1.0
644,,,,122.67,1.0
645,,,,116.37,1.1
646,,,,110.12,1.1
647,,,,103.97,1.1
648,,,,97.92,1.1
649,,,,92.02,1.1
650,,,,86.09,1.1
651,,,,80.68,1.1
652,,,,75.47,1.2
653,,,,70.58,1.2
654,,,,66.09,1.2
655,,,,62.09,1.2
656,,,,58.69,1.2
657,,,,56.02,1.2
658,,,,54.16,1.2
659,,,,53.21,1.3
660,,,,53.23,1.3
661,,,,54.2,1.3
662,,,,56.08,1.3
663,,,,58.78,1.3
664,,,,62.2,1.3
665,,,,66.21,1.3
666,,,,70.72,1.3
667,,,,75.62,1.3
668,,,,80.84,1.3
669,,,,86.25,1.3
670,,,,92.19,1.3
671,,,,98.1,1.3
672,,,,104.14,1.3
673,,,,110.3,1.3
674,,,,116.55,1.3
675,,,,122.85,1.3
676,,,,129.2,1.2
677,,,,135.57,1.2
678,,,,141.92,1.2
679,,,,148.21,1.3
680,,,,154.37,1.3
681,,,,160.23,1.3
682,,,,165.4,1.2
683,,,,168.82,1.2
684,,,,168.77,1.2
685,,,,165.28,1.2
686,,,,160.08,1.2
687,,,,154.21,1.1
688,,,,148.05,1.1
689,,,,141.75,1.0
690,,,,135.39,1.0
691,,,,129.02,0.9
692,,,,122.67,0.9
693,,,,116.36,0.9
694,,,,110.11,0.9
695,,,,103.95,0.8
696,,,,97.9,0.8
697,,,,91.99,0.8
698,,,,86.05,0.8
699,,,,80.63,0.8
700,,,,75.41,0.8
701,,,,70.5,0.8
702,,,,65.99,0.8
703,,,,61.98,0.8
704,,,,58.57,0.8
705,,,,55.87,0.8
706,,,,54.0,0.8
707,,,,53.04,0.9
708,,,,53.04,0.9
709,,,,54.0,0.9
710,,,,55.88,0.9
711,,,,58.58,0.9
712,,,,62.0,0.9
713,,,,66.01,0.9
714,,,,70.52,0.9
715,,,,75.44,0.9
716,,,,80.66,0.9
717,,,,86.08,0.9
718,,,,92.02,0.8
719,,,,97.93,0.8
720,,,,103.98,0.8
721,,,,110.14,0.8
722,,,,116.39,0.7
723,,,,122.7,0.7
724,,,,129.05,0.7
725,,,,135.41,0.7
726,,,,141.77,0.7
727,,,,148.06,0.7
728,,,,154.21,0.7
729,,,,160.06,0.7
730,,,,165.2,0.7
731,,,,168.62,0.7
732,,,,168.62,0.8
733,,,,165.19,0.8
734,,,,160.04,0.8
735,,,,154.19,0.8
736,,,,148.03,0.8
737,,,,141.74,0.8
738,,,,135.39,0.8
739,,,,129.02,0.8
740,,,,122.67,0.8
741,,,,116.35,0.9
742,,,,110.1,0.9
743,,,,103.93,0.8
744,,,,97.88,0.8
745,,,,91.96,0.8
746,,,,86.0,0.8
747,,,,80.58,0.8
748,,,,75.34,0.7
749,,,,70.42,0.7
750,,,,65.89,0.7
751,,,,61.86,0.7
752,,,,58.43,0.8
753,,,,55.72,0.8
754,,,,53.83,0.8
755,,,,52.85,0.8
756,,,,52.85,0.8
757,,,,53.8,0.8
758,,,,55.68,0.8
759,,,,58.38,0.8
760,,,,61.8,0.8
761,,,,65.82,0.8
762,,,,70.33,0.8
763,,,,75.25,0.8
764,,,,80.48,0.8
765,,,,85.91,0.8
766,,,,91.85,0.8
767,,,,97.77,0.8
768,,,,103.82,0.8
769,,,,109.99,0.8
770,,,,116.23,0.8
771,,,,122.55,0.8
772,,,,128.9,0.8
773,,,,135.26,0.8
774,,,,141.61,0.8
775,,,,147.9,0.8
776,,,,154.04,0.8
777,,,,159.88,0.8
778,,,,165.01,0.8
779,,,,168.42,0.8
780,,,,168.45,0.8
781,,,,165.09,0.8
782,,,,159.99,0.9
783,,,,154.16,0.9
784,,,,148.02,0.9
785,,,,141.73,0.9
786,,,,135.38,0.9
787,,,,129.01,0.9
788,,,,122.65,0.9
789,,,,116.34,1.0
790,,,,110.08,1.0
791,,,,103.91,1.0
792,,,,97.84,1.0
793,,,,91.91,1.0
794,,,,85.96,1.0
795,,,,80.51,1.0
796,,,,75.27,1.0
797,,,,70.33,1.1
798,,,,65.79,1.1
799,,,,61.74,1.2
800,,,,58.29,1.3
801,,,,55.56,1.3
802,,,,53.66,1.4
803,,,,52.67,1.5
804,,,,52.65,1.5
805,,,,53.6,1.6
806,,,,55.47,1.6
807,,,,58.17,1.7
808,,,,61.59,1.8
809,,,,65.61,1.9
810,,,,70.14,1.9
811,,,,75.06,2.0
812,,,,80.3,2.1
813,,,,85.74,2.2
814,,,,91.67,2.2
815,,,,97.6,2.2
816,,,,103.66,2.1
817,,,,109.83,2.1
818,,,,116.08,2.0
819,,,,122.39,2.1
820,,,,128.74,2.1
821,,,,135.11,2.1
822,,,,141.46,2.2
823,,,,147.74,2.2
824,,,,153.87,2.2
825,,,,159.7,2.1
826,,,,164.8,2.1
827,,,,168.2,2.1
828,,,,168.28,2.1
829,,,,164.99,2.0
830,,,,159.92,2.0
831,,,,154.12,2.0
832,,,,147.99,2.1
833,,,,141.71,2.1
834,,,,135.36,2.1
835,,,,128.99,2.1
836,,,,122.64,2.1
837,,,,116.32,2.1
838,,,,110.06,2.1
839,,,,103.88,2.2
840,,,,97.8,2.2
841,,,,91.87,2.2
842,,,,85.91,2.3
843,,,,80.45,2.3
844,,,,75.19,2.3
845,,,,70.23,2.3
846,,,,65.68,2.3
847,,,,61.61,2.3
848,,,,58.15,2.3
849,,,,55.4,2.4
850,,,,53.47,2.4
851,,,,52.47,2.4
852,,,,52.44,2.4
853,,,,53.38,2.5
854,,,,55.25,2.5
855,,,,57.95,2.5
856,,,,61.38,2.6
857,,,,65.41,2.6
858,,,,69.94,2.6
859,,,,74.87,2.6
860,,,,80.11,2.6
861,,,,85.57,2.6
862,,,,91.5,2.5
863,,,,97.43,2.5
864,,,,103.49,2.5
865,,,,109.67,2.5
866,,,,115.92,2.4
867,,,,122.24,2.4
868,,,,128.59,2.4
869,,,,134.96,2.4
870,,,,141.3,2.3
871,,,,147.58,2.3
872,,,,153.71,2.2
873,,,,159.51,2.2
874,,,,164.6,2.2
875,,,,167.99,2.2
876,,,,168.1,2.1
877,,,,164.87,2.1
878,,,,159.86,2.1
879,,,,154.08,2.1
880,,,,147.96,2.0
881,,,,141.69,2.0
882,,,,135.34,2.0
883,,,,128.97,2.1
884,,,,122.61,2.1
885,,,,116.29,2.2
886,,,,110.02,2.3
887,,,,103.84,2.5
888,,,,97.76,2.6
889,,,,91.81,2.7
890,,,,85.85,2.8
891,,,,80.38,2.8
892,,,,75.1,2.9
893,,,,70.13,2.9
894,,,,65.56,3.0
895,,,,61.48,3.0
896,,,,58.0,3.0
897,,,,55.23,3.0
898,,,,53.29,2.9
899,,,,52.27,2.8
900,,,,52.23,2.8
901,,,,53.17,2.7
902,,,,55.03,2.7
903,,,,57.74,2.8
904,,,,61.16,2.8
905,,,,65.2,2.8
906,,,,69.74,2.8
907,,,,74.67,2.8
908,,,,79.93,2.8
909,,,,85.39,2.9
910,,,,91.32,3.0
911,,,,97.26,3.0
912,,,,103.33,3.3
913,,,,109.5,3.5
914,,,,115.76,3.6
915,,,,122.08,3.7
916,,,,128.44,3.9
917,,,,134.8,3.9
918,,,,141.15,4.0
919,,,,147.42,3.6
920,,,,153.54,3.3
921,,,,159.33,2.7
922,,,,164.39,2.1
923,,,,167.76,1.7
924,,,,167.92,1.4
925,,,,164.75,1.2
926,,,,159.78,1.0
927,,,,154.02,1.0
928,,,,147.92,1.0
929,,,,141.66,1.0
930,,,,135.32,1.1
931,,,,128.95,1.1
932,,,,122.59,1.1
933,,,,116.26,1.0
934,,,,109.99,1.0
935,,,,103.8,1.0
936,,,,97.71,1.0
937,,,,91.75,1.0
938,,,,85.77,1.0
939,,,,80.29,1.0
940,,,,75.0,1.0
941,,,,70.02,0.9
942,,,,65.43,0.9
943,,,,61.34,0.8
944,,,,57.83,0.7
945,,,,55.05,0.6
946,,,,53.09,0.6
947,,,,52.06,0.6
948,,,,52.01,0.6
949,,,,52.94,0.6
950,,,,54.8,0.6
951,,,,57.51,0.6
952,,,,60.94,0.6
953,,,,64.99,0.6
954,,,,69.53,0.6
955,,,,74.47,0.6
956,,,,79.73,0.6
957,,,,85.2,0.6
958,,,,91.15,0.6
959,,,,97.09,0.6
960,,,,103.16,0.6
961,,,,109.34,0.7
962,,,,115.61,0.7
963,,,,121.93,0.7
964,,,,128.28,0.7
965,,,,134.65,0.7
966,,,,140.99,0.8
967,,,,147.26,0.8
968,,,,153.36,0.8
969,,,,159.14,0.8
970,,,,164.18,0.9
971,,,,167.54,0.9
972,,,,167.72,0.9
973,,,,164.62,0.9
974,,,,159.69,0.9
975,,,,153.97,0.9
976,,,,147.88,1.0
977,,,,141.62,1.0
978,,,,135.28,1.0
979,,,,128.91,1.1
980,,,,122.55,1.1
981,,,,116.22,1.1
982,,,,109.94,1.1
983,,,,103.75,1.1
984,,,,97.65,1.1
985,,,,91.69,1.1
986,,,,85.7,1.1
987,,,,80.2,1.1
988,,,,74.9,1.1
989,,,,69.91,1.1
990,,,,65.3,1.1
991,,,,61.19,1.1
992,,,,57.67,1.1
993,,,,54.86,1.0
994,,,,52.89,1.0
995,,,,51.84,1.0
996,,,,51.78,1.0
997,,,,52.71,1.0
998,,,,54.57,1.0
999,,,,57.28,1.0
1000,,,,60.72,1.0
1001,,,,64.77,1.0
1002,,,,69.32,0.9
1003,,,,74.27,0.9
1004,,,,79.54,0.9
1005,,,,85.02,0.9
1006,,,,90.97,0.9
1007,,,,96.91,0.9
1008,,,,102.99,0.9
1009,,,,109.18,0.9
1010,,,,115.45,0.9
1011,,,,121.77,0.8
1012,,,,128.13,0.8
1013,,,,134.49,0.8
1014,,,,140.83,0.8
1015,,,,147.09,0.8
1016,,,,153.19,0.8
1017,,,,158.95,0.8
1018,,,,163.96,0.8
1019,,,,167.3,0.8
1020,,,,167.52,0.7
1021,,,,164.48,0.7
1022,,,,159.6,0.7
1023,,,,153.9,0.7
1024,,,,147.83,0.7
1025,,,,141.58,0.7
1026,,,,135.24,0.7
1027,,,,128.88,0.8
1028,,,,122.51,0.8
1029,,,,116.18,0.8
1030,,,,109.9,0.9
1031,,,,103.69,0.9
1032,,,,97.59,0.9
1033,,,,91.62,1.0
1034,,,,85.62,1.0
1035,,,,80.11,1.0
1036,,,,74.8,1.0
1037,,,,69.79,1.1
1038,,,,65.17,1.1
1039,,,,61.03,1.1
1040,,,,57.49,1.1
1041,,,,54.67,1.1
1042,,,,52.68,1.2
1043,,,,51.62,1.2
1044,,,,51.55,1.2
1045,,,,52.47,1.2
1046,,,,54.34,1.3
1047,,,,57.05,1.3
1048,,,,60.5,1.3
1049,,,,64.55,1.4
1050,,,,69.11,1.4
1051,,,,74.07,1.5
1052,,,,79.35,1.5
1053,,,,84.85,1.5
1054,,,,90.18,1.6
1055,,,,96.74,1.6
1056,,,,102.83,1.6
1057,,,,109.02,1.6
1058,,,,115.29,1.6
1059,,,,121.61,1.6
1060,,,,127.97,1.6
1061,,,,134.34,1.6
1062,,,,140.67,1.6
1063,,,,146.93,1.7
1064,,,,153.01,1.7
1065,,,,158.75,1.7
1066,,,,163.75,1.8
1067,,,,167.06,1.8
1068,,,,167.31,1.8
1069,,,,164.33,1.8
1070,,,,159.5,1.8
1071,,,,153.83,1.8
1072,,,,147.77,1.8
1073,,,,141.53,1.8
1074,,,,135.2,1.8
1075,,,,128.83,1.8
1076,,,,122.47,1.8
1077,,,,116.13,1.8
1078,,,,109.84,1.8
1079,,,,103.63,1.8
1080,,,,97.52,1.8
1081,,,,91.54,1.8
1082,,,,85.54,1.8
1083,,,,80.02,1.8
1084,,,,74.69,1.9
1085,,,,69.66,1.9
1086,,,,65.02,2.0
1087,,,,60.87,2.1
1088,,,,57.32,2.1
1089,,,,54.48,2.2
1090,,,,52.47,2.3
1091,,,,51.4,2.4
1092,,,,51.32,2.5
1093,,,,52.24,2.6
1094,,,,54.1,2.7
1095,,,,56.82,2.7
1096,,,,60.27,2.8
1097,,,,64.33,2.8
1098,,,,68.9,2.8
1099,,,,73.87,2.9
1100,,,,79.16,2.9
1101,,,,84.67,3.1
1102,,,,90.05,3.2
1103,,,,96.57,3.2
1104,,,,102.66,3.7
1105,,,,108.85,3.9
1106,,,,115.13,4.1
1107,,,,121.46,4.2
1108,,,,127.82,4.3
1109,,,,134.18,4.3
1110,,,,140.51,4.3
1111,,,,146.76,4.2
1112,,,,152.84,4.2
1113,,,,158.56,4.4
1114,,,,163.52,4.5
1115,,,,166.82,4.4
1116,,,,167.09,4.3
1117,,,,164.17,4.2
1118,,,,159.39,4.1
1119,,,,153.74,3.8
1120,,,,147.71,3.5
1121,,,,141.47,3.2
1122,,,,135.15,2.9
1123,,,,128.78,2.7
1124,,,,122.41,2.5
1125,,,,116.07,2.1
1126,,,,109.78,1.8
1127,,,,103.57,1.5
1128,,,,97.45,1.1
1129,,,,91.46,1.0
1130,,,,85.45,0.9
1131,,,,79.91,0.8
1132,,,,74.57,0.7
1133,,,,69.53,0.7
1134,,,,64.87,0.7
1135,,,,60.7,0.7
1136,,,,57.13,0.7
1137,,,,54.27,0.6
1138,,,,52.25,0.6
1139,,,,51.16,0.6
1140,,,,51.07,0.6
1141,,,,51.99,0.6
