,Clearsky DHI,Clearsky DNI,Clearsky GHI,Solar Zenith Angle,Precipitable Water
131472,41,318,84,82.15,4.019
131473,14,91,17,87.96,4.026
131474,0,0,0,93.59,4.032
131475,0,0,0,98.98,4.018
131476,0,0,0,104.09,4.003
131477,0,0,0,108.85,3.982
131478,0,0,0,113.18,3.961
131479,0,0,0,117.0,3.944
131480,0,0,0,120.2,3.927
131481,0,0,0,122.68,3.915
131482,0,0,0,124.33,3.903
131483,0,0,0,125.1,3.9
131484,0,0,0,124.93,3.897
131485,0,0,0,123.84,3.899
131486,0,0,0,121.87,3.902
131487,0,0,0,119.12,3.897
131488,0,0,0,115.69,3.892
131489,0,0,0,111.68,3.868
131490,0,0,0,107.18,3.844
131491,0,0,0,102.29,3.809
131492,0,0,0,97.07,3.776
131493,0,0,0,91.59,3.741
131494,25,159,36,85.89,3.707
131495,52,356,114,80.01,3.676
131496,72,494,208,74.0,3.647
131497,87,592,310,67.87,3.627
131498,99,664,414,61.65,3.607
131499,108,717,516,55.37,3.6
131500,115,760,614,49.03,3.593
131501,121,791,703,42.66,3.6
131502,125,817,784,36.3,3.608
131503,129,835,853,29.97,3.618
131504,133,849,910,23.75,3.629
131505,135,858,953,17.79,3.638
131506,137,863,981,12.49,3.648
131507,138,866,993,9.14,3.655
131508,140,862,990,9.96,3.663
131509,139,858,971,14.26,3.668
131510,136,852,938,19.88,3.673
131511,133,841,890,25.96,3.683
131512,129,826,828,32.23,3.693
131513,125,806,755,38.58,3.702
131514,120,778,670,44.95,3.711
131515,113,744,578,51.31,3.719
131516,106,696,478,57.63,3.727
131517,95,637,376,63.9,3.738
131518,83,553,272,70.09,3.749
131519,66,444,172,76.18,3.758
131520,44,283,82,82.15,3.767
131521,13,76,16,87.97,3.772
131522,0,0,0,93.6,3.777
131523,0,0,0,99.0,3.778
131524,0,0,0,104.11,3.779
131525,0,0,0,108.88,3.784
131526,0,0,0,113.22,3.789
131527,0,0,0,117.05,3.8
131528,0,0,0,120.25,3.812
131529,0,0,0,122.74,3.831
131530,0,0,0,124.41,3.85
131531,0,0,0,125.18,3.877
131532,0,0,0,125.01,3.904
131533,0,0,0,123.92,3.935
131534,0,0,0,121.96,3.967
131535,0,0,0,119.21,3.992
131536,0,0,0,115.78,4.017
131537,0,0,0,111.76,4.03
131538,0,0,0,107.27,4.046
131539,0,0,0,102.37,4.059
131540,0,0,0,97.15,4.075
131541,0,0,0,91.67,4.102
131542,25,128,34,85.97,4.13
131543,56,311,109,80.09,4.155
131544,78,452,202,74.08,4.181
131545,96,550,302,67.95,4.197
131546,108,626,405,61.73,4.214
131547,119,681,506,55.44,4.222
131548,128,725,602,49.1,4.231
131549,135,757,692,42.74,4.23
131550,147,772,770,36.37,4.229
131551,152,792,839,30.05,4.223
131552,157,807,895,23.83,4.217
131553,160,817,938,17.87,4.209
131554,162,822,966,12.58,4.2010000000000005
131555,163,825,979,9.23,4.191
131556,167,820,975,10.02,4.182
131557,166,815,957,14.28,4.176
131558,164,807,923,19.88,4.171
131559,160,795,876,25.96,4.166
131560,154,781,815,32.23,4.162
131561,149,759,742,38.57,4.16
131562,139,735,660,44.94,4.158
131563,131,699,568,51.3,4.1610000000000005
131564,118,657,471,57.63,4.164
131565,106,596,369,63.9,4.172
131566,89,523,267,70.09,4.18
131567,70,412,169,76.19,4.194
131568,45,266,81,82.16,4.208
131569,13,63,15,87.98,4.232
131570,0,0,0,93.62,4.256
131571,0,0,0,99.02,4.284
131572,0,0,0,104.14,4.313
131573,0,0,0,108.92,4.327
131574,0,0,0,113.27,4.343
131575,0,0,0,117.1,4.338
131576,0,0,0,120.31,4.333
131577,0,0,0,122.81,4.314
131578,0,0,0,124.48,4.297
131579,0,0,0,125.26,4.2780000000000005
131580,0,0,0,125.1,4.259
131581,0,0,0,124.02,4.246
131582,0,0,0,122.06,4.234
131583,0,0,0,119.31,4.221
131584,0,0,0,115.88,4.209
131585,0,0,0,111.86,4.2010000000000005
131586,0,0,0,107.36,4.1930000000000005
131587,0,0,0,102.46,4.1960000000000015
131588,0,0,0,97.24,4.2
131589,0,0,0,91.75,4.188
131590,24,165,35,86.05,4.176
131591,48,376,112,80.17,4.143
131592,64,527,208,74.15,4.11
131593,77,624,310,68.02,4.062
131594,84,700,415,61.8,4.013999999999999
131595,92,751,518,55.51,3.955
131596,96,797,617,49.17,3.897
131597,101,826,707,42.81,3.857
131598,103,851,789,36.44,3.817
131599,107,868,858,30.12,3.823
131600,110,879,914,23.9,3.83
131601,112,887,957,17.95,3.878
131602,116,888,983,12.67,3.926
131603,117,890,995,9.33,4.002
131604,130,870,987,10.09,4.078
131605,129,866,968,14.31,4.177
131606,130,853,933,19.9,4.275
131607,128,841,884,25.97,4.385
131608,128,818,821,32.23,4.496
131609,124,797,747,38.57,4.612
131610,122,761,661,44.94,4.729
131611,115,726,569,51.3,4.8210000000000015
131612,108,676,470,57.63,4.913
131613,97,616,368,63.9,4.966
131614,84,537,266,70.1,5.02
131615,67,425,168,76.2,5.057
131616,44,267,80,82.18,5.093999999999999
131617,13,54,15,88.0,5.115
131618,0,0,0,93.64,5.136
131619,0,0,0,99.05,5.127000000000002
131620,0,0,0,104.18,5.118
131621,0,0,0,108.96,5.062
131622,0,0,0,113.32,5.007
131623,0,0,0,117.16,4.922
131624,0,0,0,120.38,4.837
131625,0,0,0,122.89,4.747
131626,0,0,0,124.57,4.659
131627,0,0,0,125.35,4.5710000000000015
131628,0,0,0,125.2,4.484
131629,0,0,0,124.12,4.416
131630,0,0,0,122.16,4.348
131631,0,0,0,119.41,4.305
131632,0,0,0,115.98,4.263
131633,0,0,0,111.96,4.228
131634,0,0,0,107.45,4.194
131635,0,0,0,102.55,4.17
131636,0,0,0,97.33,4.148
131637,0,0,0,91.84,4.147
131638,25,107,32,86.13,4.146
131639,55,308,107,80.25,4.1610000000000005
131640,77,453,200,74.23,4.176
131641,93,556,300,68.1,4.1930000000000005
131642,105,632,403,61.88,4.21
131643,116,688,504,55.58,4.212
131644,118,743,603,49.25,4.214
131645,125,775,693,42.88,4.223
131646,127,806,775,36.52,4.2330000000000005
131647,131,824,844,30.2,4.25
131648,129,846,902,23.98,4.269
131649,131,855,945,18.04,4.277
131650,129,867,975,12.77,4.285
131651,130,869,988,9.43,4.288
131652,148,844,979,10.16,4.291
131653,147,840,961,14.35,4.31
131654,145,831,927,19.91,4.329
131655,142,819,879,25.97,4.376
131656,140,800,817,32.23,4.424
131657,135,778,744,38.58,4.477
131658,131,746,659,44.94,4.53
131659,123,709,567,51.31,4.581
131660,115,660,468,57.63,4.633
131661,104,598,367,63.91,4.672
131662,89,515,265,70.11,4.712
131663,71,400,166,76.21,4.724
131664,46,245,79,82.19,4.737
131665,13,43,15,88.02,4.726
131666,0,0,0,93.67,4.715
131667,0,0,0,99.09,4.697
131668,0,0,0,104.22,4.678999999999999
131669,0,0,0,109.01,4.682
131670,0,0,0,113.37,4.686
131671,0,0,0,117.22,4.708
131672,0,0,0,120.46,4.73
131673,0,0,0,122.97,4.748
131674,0,0,0,124.66,4.766
131675,0,0,0,125.45,4.7780000000000005
131676,0,0,0,125.3,4.79
131677,0,0,0,124.23,4.799
131678,0,0,0,122.27,4.809
131679,0,0,0,119.52,4.8210000000000015
131680,0,0,0,116.08,4.833
131681,0,0,0,112.06,4.812
131682,0,0,0,107.56,4.791
131683,0,0,0,102.65,4.745
131684,0,0,0,97.42,4.699
131685,0,0,0,91.93,4.648
131686,24,88,30,86.22,4.598
131687,57,276,103,80.34,4.547
131688,78,437,196,74.32,4.497
131689,95,540,296,68.18,4.457
131690,104,633,401,61.95,4.417
131691,114,688,503,55.66,4.397
131692,118,740,601,49.32,4.377
131693,125,771,690,42.96,4.413
131694,128,801,771,36.59,4.449
131695,132,819,840,30.27,4.532
131696,133,836,897,24.07,4.617
131697,135,845,939,18.13,4.709
131698,135,853,967,12.87,4.802
131699,135,855,979,9.54,4.879
131700,138,850,975,10.24,4.957
131701,137,846,957,14.39,5.003
131702,140,832,922,19.94,5.05
131703,137,821,875,25.99,5.077
131704,137,799,813,32.24,5.105
131705,132,778,740,38.58,5.092
131706,130,742,656,44.95,5.08
131707,122,707,565,51.31,5.025
131708,115,656,466,57.64,4.971
131709,104,595,365,63.92,4.899
131710,90,511,264,70.12,4.828
131711,71,397,166,76.23,4.768
131712,46,234,78,82.22,4.708
131713,13,39,14,88.05,4.678
131714,0,0,0,93.7,4.649
131715,0,0,0,99.13,4.646
131716,0,0,0,104.27,4.644
131717,0,0,0,109.06,4.649
131718,0,0,0,113.44,4.654
131719,0,0,0,117.3,4.626
131720,0,0,0,120.54,4.599
131721,0,0,0,123.06,4.537
131722,0,0,0,124.76,4.475
131723,0,0,0,125.56,4.425
131724,0,0,0,125.41,4.376
131725,0,0,0,124.34,4.369
131726,0,0,0,122.38,4.363
131727,0,0,0,119.63,4.397
131728,0,0,0,116.19,4.431
131729,0,0,0,112.17,4.462
131730,0,0,0,107.66,4.494
131731,0,0,0,102.75,4.503
131732,0,0,0,97.52,4.513
131733,0,0,0,92.02,4.512
131734,23,86,29,86.31,4.512
131735,57,274,102,80.43,4.507
131736,80,424,194,74.4,4.503
131737,98,529,294,68.26,4.5
131738,110,610,397,62.03,4.498
131739,122,667,497,55.74,4.495
131740,129,715,595,49.4,4.492
131741,137,748,684,43.03,4.5
131742,146,769,763,36.67,4.509
131743,151,789,832,30.35,4.5280000000000005
131744,156,801,888,24.15,4.547
131745,159,812,931,18.22,4.5710000000000015
131746,161,819,959,12.98,4.596
131747,162,821,972,9.65,4.625
131748,151,835,973,10.32,4.654
131749,150,831,955,14.44,4.672
131750,147,824,922,19.97,4.69
131751,144,812,875,26.01,4.692
131752,140,797,815,32.25,4.694
131753,135,776,742,38.59,4.695
131754,127,752,659,44.96,4.697
131755,120,716,568,51.32,4.688
131756,108,678,471,57.66,4.678999999999999
131757,97,618,369,63.94,4.673
131758,83,540,267,70.14,4.668
131759,66,428,168,76.25,4.674
131760,44,265,79,82.24,4.681
131761,13,53,15,88.08,4.681
131762,0,0,0,93.74,4.682
131763,0,0,0,99.17,4.662
131764,0,0,0,104.32,4.643
131765,0,0,0,109.12,4.585
131766,0,0,0,113.51,4.527
131767,0,0,0,117.37,4.467
131768,0,0,0,120.63,4.407
131769,0,0,0,123.16,4.368
131770,0,0,0,124.86,4.329
131771,0,0,0,125.67,4.301
131772,0,0,0,125.53,4.273
131773,0,0,0,124.46,4.271
131774,0,0,0,122.5,4.27
131775,0,0,0,119.75,4.303999999999999
131776,0,0,0,116.31,4.339
131777,0,0,0,112.28,4.37
131778,0,0,0,107.77,4.401
131779,0,0,0,102.86,4.397
131780,0,0,0,97.62,4.393
131781,0,0,0,92.12,4.379
131782,22,121,30,86.4,4.3660000000000005
131783,50,328,105,80.51,4.404
131784,71,469,197,74.49,4.444
131785,87,570,297,68.34,4.523
131786,100,639,399,62.12,4.603
131787,110,694,500,55.82,4.65
131788,117,739,597,49.48,4.698
131789,123,771,686,43.11,4.722
131790,137,780,763,36.75,4.746
131791,142,800,832,30.43,4.761
131792,144,818,890,24.24,4.776
131793,146,828,933,18.31,4.782
131794,146,837,962,13.09,4.79
131795,147,840,975,9.77,4.793
131796,157,825,969,10.42,4.796
131797,156,821,951,14.49,4.79
131798,151,817,920,20.0,4.784
131799,148,806,873,26.03,4.7780000000000005
131800,143,792,813,32.27,4.772
131801,138,771,740,38.61,4.7410000000000005
131802,124,757,660,44.98,4.71
131803,117,722,569,51.34,4.652
131804,104,689,473,57.67,4.595
131805,94,630,371,63.96,4.545
131806,79,560,269,70.17,4.495
131807,63,449,170,76.28,4.472
131808,42,288,81,82.28,4.45
131809,13,64,15,88.12,4.45
131810,0,0,0,93.79,4.45
131811,0,0,0,99.22,4.46
131812,0,0,0,104.38,4.47
131813,0,0,0,109.19,4.474
131814,0,0,0,113.58,4.479
131815,0,0,0,117.46,4.478
131816,0,0,0,120.72,4.478
131817,0,0,0,123.26,4.478
131818,0,0,0,124.97,4.478
131819,0,0,0,125.78,4.48
131820,0,0,0,125.65,4.482
131821,0,0,0,124.58,4.484
131822,0,0,0,122.63,4.4860000000000015
131823,0,0,0,119.87,4.494
131824,0,0,0,116.43,4.503
131825,0,0,0,112.4,4.509
131826,0,0,0,107.88,4.515
131827,0,0,0,102.96,4.524
131828,0,0,0,97.72,4.533
131829,0,0,0,92.22,4.552
131830,22,118,29,86.5,4.5710000000000015
131831,50,323,103,80.61,4.587
131832,71,467,195,74.57,4.604
131833,86,570,296,68.43,4.609
131834,99,643,399,62.2,4.6160000000000005
131835,108,698,500,55.9,4.609
131836,117,739,597,49.56,4.604
131837,123,771,686,43.19,4.622
131838,129,796,766,36.83,4.641
131839,134,814,836,30.52,4.673
131840,141,822,891,24.32,4.705
131841,144,833,934,18.41,4.726
131842,148,835,961,13.2,4.747
131843,149,838,975,9.9,4.758
131844,172,806,964,10.52,4.769
131845,171,801,947,14.55,4.774
131846,169,793,914,20.04,4.78
131847,165,780,867,26.05,4.7860000000000005
131848,160,764,806,32.29,4.793
131849,154,742,734,38.63,4.783
131850,146,714,651,44.99,4.774
131851,137,677,560,51.36,4.754
131852,125,632,463,57.69,4.734
131853,112,568,362,63.98,4.721
131854,95,487,260,70.19,4.709
131855,75,372,163,76.31,4.699
131856,47,216,76,82.31,4.69
131857,12,31,13,88.16,4.6930000000000005
131858,0,0,0,93.83,4.697
131859,0,0,0,99.28,4.711
131860,0,0,0,104.44,4.726
131861,0,0,0,109.26,4.749
131862,0,0,0,113.66,4.773
131863,0,0,0,117.55,4.795
131864,0,0,0,120.82,4.8180000000000005
131865,0,0,0,123.37,4.839
131866,0,0,0,125.09,4.86
131867,0,0,0,125.91,4.88
131868,0,0,0,125.78,4.901
131869,0,0,0,124.71,4.925
131870,0,0,0,122.76,4.95
131871,0,0,0,120.0,4.977
131872,0,0,0,116.55,5.005
131873,0,0,0,112.51,5.024
131874,0,0,0,107.99,5.044
131875,0,0,0,103.07,5.051
131876,0,0,0,97.83,5.059
131877,0,0,0,92.32,5.053999999999999
131878,21,84,26,86.59,5.049
131879,54,271,98,80.7,5.029
131880,78,418,189,74.66,5.01
131881,97,523,288,68.52,4.981
131882,110,602,391,62.28,4.954
131883,122,660,491,55.98,4.925
131884,132,702,588,49.64,4.896
131885,140,737,677,43.27,4.878
131886,134,786,762,36.91,4.8610000000000015
131887,138,805,832,30.6,4.8580000000000005
131888,142,819,889,24.41,4.855
131889,145,830,932,18.51,4.865
131890,146,837,960,13.32,4.876
131891,147,839,974,10.03,4.9
131892,146,840,972,10.62,4.924
131893,145,836,954,14.62,4.955
131894,143,828,921,20.08,4.9860000000000015
131895,140,817,874,26.09,5.013999999999999
131896,135,801,813,32.32,5.043
131897,131,780,740,38.65,5.073
131898,124,753,657,45.02,5.104
131899,117,718,566,51.38,5.1320000000000014
131900,108,672,468,57.72,5.16
131901,97,612,366,64.01,5.1770000000000005
131902,84,531,264,70.23,5.195
131903,66,418,165,76.35,5.202000000000001
131904,43,258,77,82.35,5.209
131905,12,49,14,88.21,5.211
131906,0,0,0,93.89,5.212999999999999
131907,0,0,0,99.34,5.212999999999999
131908,0,0,0,104.51,5.212999999999999
131909,0,0,0,109.34,5.188
131910,0,0,0,113.75,5.162999999999999
131911,0,0,0,117.64,5.113
131912,0,0,0,120.93,5.064
131913,0,0,0,123.48,5.011
131914,0,0,0,125.22,4.958
131915,0,0,0,126.04,4.91
131916,0,0,0,125.91,4.863
131917,0,0,0,124.85,4.822
131918,0,0,0,122.89,4.782
131919,0,0,0,120.13,4.738
131920,0,0,0,116.68,4.694
131921,0,0,0,112.64,4.632
131922,0,0,0,108.11,4.5710000000000015
131923,0,0,0,103.19,4.499
131924,0,0,0,97.93,4.427
131925,0,0,0,92.42,4.363
131926,21,76,26,86.69,4.3
131927,55,267,98,80.79,4.247
131928,77,431,191,74.75,4.1960000000000015
131929,95,538,291,68.6,4.158
131930,105,626,396,62.37,4.121
131931,116,684,498,56.06,4.089
131932,118,741,598,49.72,4.058
131933,125,774,688,43.35,4.037
131934,124,812,772,36.99,4.017
131935,128,831,843,30.69,4.003
131936,125,854,902,24.51,3.992
131937,128,863,946,18.62,3.983
131938,124,876,977,13.44,3.974
131939,125,879,991,10.17,3.968
131940,130,872,987,10.74,3.962
131941,129,868,969,14.7,3.963
131942,127,862,936,20.13,3.965
131943,124,851,889,26.12,3.975
131944,121,836,827,32.35,3.986
131945,116,816,754,38.68,4.033
131946,112,788,669,45.04,4.08
131947,106,753,576,51.41,4.155
131948,99,705,476,57.75,4.231
131949,90,645,372,64.04,4.31
131950,78,561,268,70.26,4.39
131951,63,447,168,76.39,4.457
131952,42,277,78,82.4,4.525
131953,12,51,14,88.26,4.573
131954,0,0,0,93.95,4.622
131955,0,0,0,99.4,4.6560000000000015
131956,0,0,0,104.58,4.691
131957,0,0,0,109.42,4.69
131958,0,0,0,113.84,4.69
131959,0,0,0,117.75,4.664
131960,0,0,0,121.04,4.638999999999999
131961,0,0,0,123.61,4.61
131962,0,0,0,125.35,4.582
131963,0,0,0,126.18,4.551
131964,0,0,0,126.06,4.521
131965,0,0,0,124.99,4.493
131966,0,0,0,123.03,4.465
131967,0,0,0,120.27,4.442
131968,0,0,0,116.81,4.419
131969,0,0,0,112.77,4.396
131970,0,0,0,108.23,4.373
131971,0,0,0,103.3,4.343999999999999
131972,0,0,0,98.05,4.315
131973,0,0,0,92.53,4.2810000000000015
131974,20,106,26,86.79,4.248
131975,49,321,100,80.89,4.217
131976,67,485,194,74.85,4.187
131977,81,588,295,68.69,4.164
131978,91,668,400,62.45,4.141
131979,100,722,502,56.15,4.129
131980,105,768,601,49.8,4.118
131981,111,799,692,43.43,4.112
131982,108,837,776,37.08,4.106
131983,112,855,846,30.77,4.1080000000000005
131984,114,869,904,24.6,4.11
131985,116,878,948,18.72,4.119
131986,117,885,977,13.57,4.128
131987,117,887,991,10.32,4.133
131988,128,872,985,10.86,4.138
131989,127,868,967,14.78,4.137
131990,124,863,935,20.19,4.137
131991,122,852,887,26.17,4.138
131992,118,839,827,32.39,4.138999999999999
131993,114,819,753,38.71,4.157
131994,108,795,669,45.08,4.177
131995,102,761,577,51.44,4.199
131996,94,720,478,57.79,4.222
131997,85,663,375,64.08,4.234
131998,73,588,271,70.3,4.247
131999,59,478,171,76.44,4.249
132000,39,319,81,82.45,4.251
132001,12,76,14,88.32,4.247
132002,0,0,0,94.01,4.243
132003,0,0,0,99.48,4.24
132004,0,0,0,104.66,4.237
132005,0,0,0,109.51,4.218
132006,0,0,0,113.94,4.2010000000000005
132007,0,0,0,117.86,4.176
132008,0,0,0,121.16,4.151
132009,0,0,0,123.74,4.141
132010,0,0,0,125.48,4.131
132011,0,0,0,126.32,4.138999999999999
132012,0,0,0,126.2,4.147
132013,0,0,0,125.14,4.172
132014,0,0,0,123.18,4.198
132015,0,0,0,120.41,4.232
132016,0,0,0,116.95,4.266
132017,0,0,0,112.9,4.298
132018,0,0,0,108.36,4.331
132019,0,0,0,103.42,4.35
132020,0,0,0,98.16,4.37
132021,0,0,0,92.63,4.375
132022,18,158,27,86.9,4.38
132023,42,380,102,80.99,4.375
132024,59,530,196,74.94,4.371
132025,71,628,298,68.78,4.36
132026,80,699,403,62.54,4.35
132027,88,750,505,56.23,4.34
132028,95,788,603,49.89,4.33
132029,100,818,693,43.52,4.336
132030,105,840,774,37.16,4.342
132031,108,857,844,30.86,4.3660000000000005
132032,112,868,901,24.7,4.391
132033,114,877,944,18.83,4.423
132034,116,881,973,13.7,4.455
132035,117,883,986,10.47,4.484
132036,108,895,987,10.99,4.515
132037,107,891,969,14.86,4.542
132038,106,884,936,20.25,4.5710000000000015
132039,104,874,889,26.21,4.598
132040,101,860,828,32.43,4.625
132041,98,842,755,38.75,4.646
132042,93,818,671,45.11,4.668
132043,88,787,579,51.48,4.686
132044,82,747,480,57.82,4.704
132045,74,694,377,64.12,4.721
132046,64,621,273,70.35,4.74
132047,52,515,172,76.49,4.757
132048,35,356,81,82.51,4.774
132049,11,109,14,88.38,4.792
132050,0,0,0,94.08,4.81
132051,0,0,0,99.55,4.829
132052,0,0,0,104.75,4.849
132053,0,0,0,109.61,4.848
132054,0,0,0,114.04,4.847
132055,0,0,0,117.97,4.825
132056,0,0,0,121.28,4.803999999999999
132057,0,0,0,123.87,4.779
132058,0,0,0,125.63,4.754
132059,0,0,0,126.47,4.729
132060,0,0,0,126.36,4.705
132061,0,0,0,125.29,4.681
132062,0,0,0,123.33,4.658
132063,0,0,0,120.56,4.638
132064,0,0,0,117.09,4.619
132065,0,0,0,113.03,4.61
132066,0,0,0,108.49,4.602
132067,0,0,0,103.54,4.61
132068,0,0,0,98.27,4.618
132069,0,0,0,92.74,4.635
132070,18,134,25,87.0,4.652
132071,44,352,99,81.09,4.67
132072,63,499,192,75.04,4.688
132073,77,599,293,68.88,4.7
132074,87,672,396,62.63,4.713
132075,96,725,498,56.32,4.718
132076,103,766,595,49.97,4.723
132077,109,796,686,43.6,4.7360000000000015
132078,113,821,767,37.25,4.749
132079,117,839,837,30.95,4.77
132080,119,853,894,24.79,4.791
132081,122,862,937,18.94,4.807
132082,123,868,966,13.83,4.823
132083,124,871,980,10.62,4.836
132084,137,851,973,11.12,4.85
132085,136,848,956,14.96,4.8660000000000005
132086,136,837,922,20.32,4.882
132087,134,826,875,26.27,4.894
132088,131,809,814,32.47,4.9060000000000015
132089,126,789,741,38.79,4.891
132090,121,761,658,45.15,4.877
132091,114,727,566,51.52,4.839
132092,105,682,468,57.87,4.801
132093,95,623,366,64.17,4.758
132094,81,545,264,70.4,4.715
132095,64,431,164,76.54,4.667
132096,41,272,76,82.57,4.619
132097,11,51,12,88.45,4.5710000000000015
132098,0,0,0,94.15,4.523
132099,0,0,0,99.63,4.477
132100,0,0,0,104.84,4.432
132101,0,0,0,109.71,4.402
132102,0,0,0,114.15,4.373
132103,0,0,0,118.09,4.3660000000000005
132104,0,0,0,121.42,4.359
132105,0,0,0,124.01,4.369
132106,0,0,0,125.78,4.379
132107,0,0,0,126.63,4.404
132108,0,0,0,126.51,4.428999999999999
132109,0,0,0,125.45,4.458
132110,0,0,0,123.48,4.487
132111,0,0,0,120.71,4.509
132112,0,0,0,117.24,4.5310000000000015
132113,0,0,0,113.17,4.542
132114,0,0,0,108.62,4.553
132115,0,0,0,103.67,4.553
132116,0,0,0,98.39,4.553999999999999
132117,0,0,0,92.86,4.54
132118,18,86,23,87.11,4.527
132119,49,292,94,81.19,4.504
132120,70,454,187,75.13,4.482
132121,86,560,287,68.97,4.47
132122,97,643,392,62.72,4.458
132123,107,699,494,56.41,4.468
132124,113,744,592,50.06,4.479
132125,120,776,682,43.69,4.512
132126,123,805,764,37.34,4.545
132127,127,824,833,31.04,4.595
132128,135,831,889,24.89,4.646
132129,138,840,932,19.06,4.705
132130,145,838,959,13.97,4.766
132131,146,841,972,10.79,4.83
132132,154,828,967,11.26,4.895
132133,153,823,949,15.06,4.963
132134,156,808,914,20.39,5.032
132135,153,796,866,26.33,5.098
132136,152,773,804,32.52,5.164
132137,146,751,732,38.84,5.205
132138,128,745,653,45.2,5.247999999999998
132139,120,709,561,51.57,5.269
132140,114,654,462,57.92,5.29
132141,102,592,360,64.22,5.303
132142,89,504,257,70.45,5.317
132143,69,389,160,76.6,5.318
132144,43,228,73,82.63,5.319
132145,10,34,11,88.52,5.312
132146,0,0,0,94.23,5.306
